,time,maxCapacity,startingCapacity,current,batteryPercentage,remainingCapacity
0,1639505324.789185,18720.000000000004,0.0,0.0,0.0,0.0
1,1639505324.9909728,18720.000000000004,7488.000000000002,1.483142626285553,40.0,7487.700720045559
2,1639505325.1910264,18720.000000000004,7488.000000000002,1.5141212224960328,39.0,7487.400913196339
3,1639505325.390853,18720.000000000004,7488.000000000002,1.5384616374969482,39.0,7487.09591975402
4,1639505325.5907502,18720.000000000004,7488.000000000002,1.4256106257438659,40.0,7486.7996647487
5,1639505325.7909772,18720.000000000004,7488.000000000002,1.436674416065216,40.0,7486.513111343436
6,1639505325.990902,18720.000000000004,7488.000000000002,1.5628021240234375,39.0,7486.213276608602
7,1639505326.19071,18720.000000000004,7488.000000000002,1.5074830293655395,40.0,7485.906542655304
8,1639505326.3906271,18720.000000000004,7488.000000000002,1.405695629119873,39.0,7485.61534557273
9,1639505326.5907333,18720.000000000004,7488.000000000002,1.4189721286296844,40.0,7485.3327288862565
10,1639505326.7907267,18720.000000000004,7488.000000000002,1.438887321949005,40.0,7485.046952412197
11,1639505326.9907193,18720.000000000004,7488.000000000002,1.4543765246868134,39.0,7484.757636650575
12,1639505327.1908803,18720.000000000004,7488.000000000002,1.458801931142807,39.0,7484.46608432293
13,1639505327.3911295,18720.000000000004,7488.000000000002,1.4610147356987,39.0,7484.173738854245
14,1639505327.590963,18720.000000000004,7488.000000000002,1.4034829199314118,40.0,7483.887527711224
15,1639505327.7907097,18720.000000000004,7488.000000000002,1.348163628578186,40.0,7483.612711349952
16,1639505327.9906962,18720.000000000004,7488.000000000002,1.6358236074447632,40.0,7483.314332831189
17,1639505328.193682,18720.000000000004,7488.000000000002,2.8683354377746584,37.0,7482.857192749717
18,1639505328.39075,18720.000000000004,7488.000000000002,5.192295241355896,33.0,7482.062946663115
19,1639505328.5908022,18720.000000000004,7488.000000000002,6.7061056137084964,28.0,7480.872795664348
20,1639505328.7908018,18720.000000000004,7488.000000000002,7.8925642490386965,23.0,7479.412931810608
21,1639505329.0008807,18720.000000000004,7488.000000000002,1.4853552222251891,39.0,7478.427880050732
22,1639505329.2008262,18720.000000000004,7488.000000000002,7.594117307662964,23.0,7477.520180441132
23,1639505329.4009562,18720.000000000004,7488.000000000002,8.824416464567184,18.0,7475.8772599757085
24,1639505329.7064598,18720.000000000004,7488.000000000002,1.6114831209182738,37.0,7474.283157493944
25,1639505329.888013,18720.000000000004,7488.000000000002,1.686717116832733,36.0,7473.983758213295
26,1639505330.000763,18720.000000000004,7488.000000000002,1.7907172322273255,37.0,7473.787717759009
27,1639505330.2470925,18720.000000000004,7488.000000000002,6.208232879638672,25.0,7472.802528884344
28,1639505330.400717,18720.000000000004,7488.000000000002,8.58958625793457,16.0,7471.66587484524
29,1639505330.6010299,18720.000000000004,7488.000000000002,3.227080452442169,28.0,7470.482359735217
30,1639505330.801064,18720.000000000004,7488.000000000002,1.7442492127418519,38.0,7469.985141904272
31,1639505331.002437,18720.000000000004,7488.000000000002,1.6601640224456786,38.0,7469.642363280368
32,1639505331.200913,18720.000000000004,7488.000000000002,1.7199087262153625,36.0,7469.306931895217
33,1639505331.4007735,18720.000000000004,7488.000000000002,1.6955683350563049,38.0,7468.965622294266
34,1639505331.6008167,18720.000000000004,7488.000000000002,1.7442492246627808,37.0,7468.621566235746
35,1639505331.8008833,18720.000000000004,7488.000000000002,1.6668023228645326,38.0,7468.280347550168
36,1639505332.0007179,18720.000000000004,7488.000000000002,1.6136958181858063,37.0,7467.952569057551
37,1639505332.2007236,18720.000000000004,7488.000000000002,1.5517384171485902,37.0,7467.636016502168
38,1639505332.4070718,18720.000000000004,7488.000000000002,1.5229722261428833,37.0,7467.318786028348
39,1639505332.6007357,18720.000000000004,7488.000000000002,1.6313980102539063,37.0,7467.013342309024
40,1639505332.8007314,18720.000000000004,7488.000000000002,1.5074830174446106,38.0,7466.6994608667255
41,1639505333.0008378,18720.000000000004,7488.000000000002,1.4986318230628968,39.0,7466.3986894838645
42,1639505333.2010145,18720.000000000004,7488.000000000002,1.49863201379776,38.0,7466.098698268164
43,1639505333.4008477,18720.000000000004,7488.000000000002,1.438887119293213,39.0,7465.805191410517
44,1639505333.6010776,18720.000000000004,7488.000000000002,1.5384615242481232,38.0,7465.507114324955
45,1639505333.8007889,18720.000000000004,7488.000000000002,1.5229722201824187,38.0,7465.201412833597
46,1639505334.0009928,18720.000000000004,7488.000000000002,1.5473129153251648,39.0,7464.894071311279
47,1639505334.2007546,18720.000000000004,7488.000000000002,1.6026320099830627,38.0,7464.579451870842
48,1639505334.401047,18720.000000000004,7488.000000000002,1.4787169218063354,38.0,7464.270866563236
49,1639505334.601044,18720.000000000004,7488.000000000002,1.4167593121528625,38.0,7463.981323357986
50,1639505334.8007712,18720.000000000004,7488.000000000002,1.4012699365615844,38.0,7463.69990467587
51,1639505335.0008414,18720.000000000004,7488.000000000002,1.4233979105949401,39.0,7463.417338826175
52,1639505335.2011545,18720.000000000004,7488.000000000002,1.4588019371032714,39.0,7463.128667645588
53,1639505335.4008608,18720.000000000004,7488.000000000002,1.3946316301822663,40.0,7462.84374329276
54,1639505335.6008728,18720.000000000004,7488.000000000002,1.5694405078887939,39.0,7462.547318341038
55,1639505335.8009772,18720.000000000004,7488.000000000002,2.047398316860199,38.0,7462.185445523906
56,1639505336.0008793,18720.000000000004,7488.000000000002,3.255570149421692,35.0,7461.655408369881
57,1639505336.2008848,18720.000000000004,7488.000000000002,7.57378740310669,25.0,7460.572442664356
58,1639505336.4008539,18720.000000000004,7488.000000000002,9.556842517852782,21.0,7458.859644740763
59,1639505336.600808,18720.000000000004,7488.000000000002,10.827248287200927,17.0,7456.821704159049
60,1639505336.8009756,18720.000000000004,7488.000000000002,4.2762093365192415,29.0,7455.310092304448
61,1639505337.0008497,18720.000000000004,7488.000000000002,1.529610538482666,39.0,7454.729875611371
62,1639505337.2009263,18720.000000000004,7488.000000000002,8.514044727385045,18.0,7453.725125512986
63,1639505337.4011815,18720.000000000004,7488.000000000002,5.362955293059349,24.0,7452.335655114062
64,1639505337.6010602,18720.000000000004,7488.000000000002,1.5605895280838014,38.0,7451.643720570465
65,1639505337.8011088,18720.000000000004,7488.000000000002,1.6291852355003358,37.0,7451.324665446897
66,1639505338.0010934,18720.000000000004,7488.000000000002,1.567227828502655,37.0,7451.005048832027
67,1639505338.211588,18720.000000000004,7488.000000000002,5.595157539844513,25.0,7450.251227403103
68,1639505338.4111257,18720.000000000004,7488.000000000002,4.3595716685056685,26.0,7449.258055248854
69,1639505338.6111572,18720.000000000004,7488.000000000002,1.1954826176166535,34.0,7448.702462275542
70,1639505338.8107958,18720.000000000004,7488.000000000002,1.5959938287734985,38.0,7448.4238190435535
71,1639505339.0602477,18720.000000000004,7488.000000000002,1.7951428890228271,36.0,7448.000856336072
72,1639505339.211099,18720.000000000004,7488.000000000002,2.0053557991981505,35.0,7447.7142013477805
73,1639505339.411746,18720.000000000004,7488.000000000002,1.633610725402832,37.0,7447.3491272791225
74,1639505339.6115844,18720.000000000004,7488.000000000002,1.7154832363128663,37.0,7447.014488489932
75,1639505339.8117406,18720.000000000004,7488.000000000002,1.9124196410179137,36.0,7446.6514148414835
76,1639505340.0110848,18720.000000000004,7488.000000000002,1.8084195017814637,36.0,7446.280551068175
77,1639505340.210868,18720.000000000004,7488.000000000002,1.5318236231803894,37.0,7445.94688902713
78,1639505340.4110816,18720.000000000004,7488.000000000002,1.7730152249336242,36.0,7445.6160520686535
79,1639505340.6112144,18720.000000000004,7488.000000000002,1.5273980259895326,38.0,7445.285791518839
80,1639505340.8112793,18720.000000000004,7488.000000000002,1.5738659381866456,37.0,7444.975564490224
81,1639505341.0142584,18720.000000000004,7488.000000000002,1.624759805202484,38.0,7444.650937422373
82,1639505341.211034,18720.000000000004,7488.000000000002,1.6579511165618896,36.0,7444.327958593939
83,1639505341.412978,18720.000000000004,7488.000000000002,1.5716532945632935,38.0,7444.001859180224
84,1639505341.6110702,18720.000000000004,7488.000000000002,1.6380362272262574,37.0,7443.68395191523
85,1639505341.8116732,18720.000000000004,7488.000000000002,1.7531002163887024,37.0,7443.343815829208
86,1639505342.0108447,18720.000000000004,7488.000000000002,1.6336108088493346,38.0,7443.006547598707
87,1639505342.2107842,18720.000000000004,7488.000000000002,1.6092702150344849,37.0,7442.682357610714
88,1639505342.4108834,18720.000000000004,7488.000000000002,1.5716533005237578,37.0,7442.364107437936
89,1639505342.6108015,18720.000000000004,7488.000000000002,1.6136959195137024,37.0,7442.045703064774
90,1639505342.8109455,18720.000000000004,7488.000000000002,1.5959935307502746,37.0,7441.724502937844
91,1639505343.0109913,18720.000000000004,7488.000000000002,1.5163341283798217,39.0,7441.4131988622
92,1639505343.2110987,18720.000000000004,7488.000000000002,1.6070574283599854,37.0,7441.100692080279
93,1639505343.4107902,18720.000000000004,7488.000000000002,1.6999938249588014,37.0,7440.770497011314
94,1639505343.610888,18720.000000000004,7488.000000000002,1.9788024425506592,37.0,7440.40243749271
95,1639505343.8108442,18720.000000000004,7488.000000000002,2.4899521231651307,36.0,7439.955659949534
96,1639505344.0111423,18720.000000000004,7488.000000000002,4.251315546035767,31.0,7439.280528494727
97,1639505344.2121952,18720.000000000004,7488.000000000002,9.001437711715699,21.0,7437.948276229639
98,1639505344.4110932,18720.000000000004,7488.000000000002,11.281280708312988,15.0,7435.931179384488
99,1639505344.699629,18720.000000000004,7488.000000000002,9.979620027542115,16.0,7432.863913528599
100,1639505344.8114266,18720.000000000004,7488.000000000002,4.811837506294251,27.0,7432.037089015335
101,1639505345.011033,18720.000000000004,7488.000000000002,1.3857807278633119,38.0,7431.41854682552
102,1639505345.2111602,18720.000000000004,7488.000000000002,6.6311480641365055,22.0,7430.61634437114
103,1639505345.4191518,18720.000000000004,7488.000000000002,4.538360193371773,27.0,7429.4547624240895
104,1639505345.6793623,18720.000000000004,7488.000000000002,1.3990575194358825,38.0,7428.682273166444
105,1639505345.844321,18720.000000000004,7488.000000000002,1.4388871252536775,37.0,7428.448201314907
106,1639505346.0109031,18720.000000000004,7488.000000000002,1.343738031387329,38.0,7428.216433533358
107,1639505346.210974,18720.000000000004,7488.000000000002,6.082104861736298,24.0,7427.473586153852
108,1639505346.410884,18720.000000000004,7488.000000000002,2.6156338557600973,28.0,7426.604204004506
109,1639505346.680319,18720.000000000004,7488.000000000002,1.0597811222076416,36.0,7426.10906097974
110,1639505346.839054,18720.000000000004,7488.000000000002,1.3813551276922227,37.0,7425.915314053448
111,1639505347.020957,18720.000000000004,7488.000000000002,1.3437379360198975,39.0,7425.667462907762
112,1639505347.220975,18720.000000000004,7488.000000000002,1.3747169256210328,37.0,7425.395593051904
113,1639505347.4209745,18720.000000000004,7488.000000000002,1.4012700319290161,37.0,7425.117994951811
114,1639505347.6212897,18720.000000000004,7488.000000000002,1.4433128237724304,37.0,7424.833088307293
115,1639505347.8209603,18720.000000000004,7488.000000000002,1.4233977317810058,37.0,7424.546889466037
116,1639505348.0209382,18720.000000000004,7488.000000000002,1.6867173135280609,36.0,7424.235912367533
117,1639505348.2209752,18720.000000000004,7488.000000000002,1.6579509913921355,36.0,7423.901383656391
118,1639505348.4210632,18720.000000000004,7488.000000000002,1.6225468158721923,36.0,7423.573189494166
119,1639505348.6209595,18720.000000000004,7488.000000000002,1.5406744301319122,36.0,7423.2570313262795
120,1639505348.8212323,18720.000000000004,7488.000000000002,1.511908721923828,37.0,7422.951356640963
121,1639505349.0209668,18720.000000000004,7488.000000000002,1.5273978292942048,37.0,7422.647829530701
122,1639505349.2209573,18720.000000000004,7488.000000000002,1.4322487354278564,37.0,7422.35187891636
123,1639505349.42139,18720.000000000004,7488.000000000002,1.4831427216529847,38.0,7422.059708912878
124,1639505349.6212754,18720.000000000004,7488.000000000002,1.39463152885437,38.0,7421.772096429837
125,1639505349.8210168,18720.000000000004,7488.000000000002,1.4455252289772034,38.0,7421.48844803812
126,1639505350.0209754,18720.000000000004,7488.000000000002,1.5451000332832336,37.0,7421.189447473386
127,1639505350.220929,18720.000000000004,7488.000000000002,1.5827171206474304,37.0,7420.876738392068
128,1639505350.4209502,18720.000000000004,7488.000000000002,1.4300360321998595,37.0,7420.5754310407665
129,1639505350.6209254,18720.000000000004,7488.000000000002,1.461014723777771,38.0,7420.286361738812
130,1639505350.8212664,18720.000000000004,7488.000000000002,1.7243342995643616,36.0,7419.967283756366
131,1639505351.0209992,18720.000000000004,7488.000000000002,1.7685895442962647,38.0,7419.618458060737
132,1639505351.220938,18720.000000000004,7488.000000000002,1.6513129234313966,37.0,7419.276572507252
133,1639505351.4209313,18720.000000000004,7488.000000000002,2.8262927532196045,34.0,7418.828826778454
134,1639505351.620939,18720.000000000004,7488.000000000002,4.342315721511841,31.0,7418.1119384139965
135,1639505351.8213875,18720.000000000004,7488.000000000002,4.8269124031066895,29.0,7417.192959342386
136,1639505352.0210285,18720.000000000004,7488.000000000002,6.715371561050415,25.0,7416.040802847672
137,1639505352.2209496,18720.000000000004,7488.000000000002,12.861612462997437,11.0,7414.0838764525315
138,1639505352.4212725,18720.000000000004,7488.000000000002,13.41701717376709,7.0,7411.451771245058
139,1639505352.6209579,18720.000000000004,7488.000000000002,9.857779216766357,15.0,7409.127953486054
140,1639505352.8212495,18720.000000000004,7488.000000000002,4.189188838005066,28.0,7407.721208396603
141,1639505353.0209918,18720.000000000004,7488.000000000002,1.88807932138443,35.0,7407.114264584403
142,1639505353.2237263,18720.000000000004,7488.000000000002,1.5716533064842224,31.0,7406.763561053441
143,1639505353.4209633,18720.000000000004,7488.000000000002,1.3739943251013755,33.0,7406.4730656807305
144,1639505353.621023,18720.000000000004,7488.000000000002,1.9301217198371887,35.0,7406.142555527129
145,1639505353.8222342,18720.000000000004,7488.000000000002,1.9079939365386962,35.0,7405.756419571657
146,1639505354.021032,18720.000000000004,7488.000000000002,1.8770151376724242,34.0,7405.380193565954
147,1639505354.2212126,18720.000000000004,7488.000000000002,0.9130158185958862,34.0,7405.100938627418
148,1639505354.421095,18720.000000000004,7488.000000000002,1.584929895401001,33.0,7404.851291098959
149,1639505354.6310925,18720.000000000004,7488.000000000002,1.8438238143920898,34.0,7404.491275981426
150,1639505354.8210878,18720.000000000004,7488.000000000002,1.6336107134819031,36.0,7404.160927892638
151,1639505355.021158,18720.000000000004,7488.000000000002,1.8571003317832946,35.0,7403.811734364082
152,1639505355.221013,18720.000000000004,7488.000000000002,1.9057813167572022,34.0,7403.435718840346
153,1639505355.4211323,18720.000000000004,7488.000000000002,1.6136959314346313,36.0,7403.083561254425
154,1639505355.6210635,18720.000000000004,7488.000000000002,1.819483208656311,34.0,7402.740361536681
155,1639505355.8213186,18720.000000000004,7488.000000000002,1.726546835899353,34.0,7402.3853061375785
156,1639505356.0310543,18720.000000000004,7488.000000000002,1.6955681324005127,36.0,7402.02643641485
157,1639505356.2313387,18720.000000000004,7488.000000000002,1.6999938368797303,35.0,7401.686397231407
158,1639505356.431017,18720.000000000004,7488.000000000002,1.788504719734192,35.0,7401.3381087055095
159,1639505356.6310632,18720.000000000004,7488.000000000002,2.0296963334083555,33.0,7400.956200207145
160,1639505356.8313816,18720.000000000004,7488.000000000002,1.611483132839203,37.0,7400.591502700381
161,1639505357.119104,18720.000000000004,7488.000000000002,1.507482922077179,37.0,7400.142804580235
162,1639505357.2310283,18720.000000000004,7488.000000000002,1.6557384371757506,35.0,7399.965783738279
163,1639505357.4310746,18720.000000000004,7488.000000000002,1.6402489423751831,37.0,7399.636108696753
164,1639505357.631048,18720.000000000004,7488.000000000002,1.5119085311889648,37.0,7399.320934960086
165,1639505357.8314133,18720.000000000004,7488.000000000002,1.518546724319458,37.0,7399.017335914386
166,1639505358.0312848,18720.000000000004,7488.000000000002,1.6999937415122985,36.0,7398.695688594546
167,1639505358.231047,18720.000000000004,7488.000000000002,1.5296106219291687,36.0,7398.373112310046
168,1639505358.4313726,18720.000000000004,7488.000000000002,1.5672277212142944,37.0,7398.062924113084
169,1639505358.6311886,18720.000000000004,7488.000000000002,1.4897808194160462,37.0,7397.757504521322
170,1639505358.831181,18720.000000000004,7488.000000000002,1.4123338282108306,38.0,7397.467304058056
171,1639505359.0310802,18720.000000000004,7488.000000000002,2.4434839248657227,35.0,7397.08191662247
172,1639505359.2311454,18720.000000000004,7488.000000000002,2.2841645240783692,36.0,7396.608997807625
173,1639505359.430979,18720.000000000004,7488.000000000002,3.6826342344284058,33.0,7396.012814275408
174,1639505359.631059,18720.000000000004,7488.000000000002,4.895507955551148,30.0,7395.154657282823
175,1639505359.8310895,18720.000000000004,7488.000000000002,5.942562246322632,27.0,7394.070684628408
176,1639505360.0851889,18720.000000000004,7488.000000000002,6.96776556968689,26.0,7392.430431552276
177,1639505360.231713,18720.000000000004,7488.000000000002,12.441048288345337,10.0,7391.0085011788115
178,1639505360.4310641,18720.000000000004,7488.000000000002,13.923741436004638,6.0,7388.3805766274045
179,1639505360.6310577,18720.000000000004,7488.000000000002,10.969003868103027,15.0,7385.8913816245595
180,1639505360.8788395,18720.000000000004,7488.000000000002,4.931603828072548,26.0,7383.921441395904
181,1639505361.0310204,18720.000000000004,7488.000000000002,1.3924190282821656,38.0,7383.440243618985
182,1639505361.3379185,18720.000000000004,7488.000000000002,1.0406337201595306,36.0,7383.066893965376
183,1639505361.4310327,18720.000000000004,7488.000000000002,1.7022065982222556,29.0,7382.939195359898
184,1639505361.631393,18720.000000000004,7488.000000000002,1.5495256304740905,36.0,7382.613436340464
185,1639505361.831281,18720.000000000004,7488.000000000002,1.6048449218273162,36.0,7382.298175944256
186,1639505362.0311048,18720.000000000004,7488.000000000002,1.520759516954422,37.0,7381.98589077806
187,1639505362.231704,18720.000000000004,7488.000000000002,1.070844829082489,35.0,7381.725953907122
188,1639505362.431096,18720.000000000004,7488.000000000002,1.4388873100280761,34.0,7381.475743551006
189,1639505362.631129,18720.000000000004,7488.000000000002,1.556163913011551,35.0,7381.176189086061
190,1639505362.831087,18720.000000000004,7488.000000000002,1.3415253281593322,37.0,7380.886480888797
191,1639505363.0310864,18720.000000000004,7488.000000000002,1.6070576071739198,36.0,7380.59162357946
192,1639505363.2310622,18720.000000000004,7488.000000000002,1.4477381348609923,36.0,7380.286181076748
193,1639505363.4311695,18720.000000000004,7488.000000000002,1.5782916307449342,35.0,7379.983415699155
194,1639505363.6310663,18720.000000000004,7488.000000000002,1.5207597136497497,36.0,7379.67367045649
195,1639505363.8310342,18720.000000000004,7488.000000000002,1.5849299311637879,35.0,7379.363151398616
196,1639505364.0314858,18720.000000000004,7488.000000000002,1.7376108407974242,36.0,7379.030147070993
197,1639505364.231138,18720.000000000004,7488.000000000002,1.6358234405517578,35.0,7378.6933902915525
