,time,maxCapacity,startingCapacity,current,batteryPercentage,remainingCapacity
0,1639499449.391984,18720.000000000004,0.0,0.0,0.0,0.0
1,1639499449.630259,18720.000000000004,8049.600000000001,0.33692850172519684,43.0,8049.51971834403
2,1639499449.8299727,18720.000000000004,8049.600000000001,0.3966734051704407,42.0,8049.446463165897
3,1639499450.0303638,18720.000000000004,8049.600000000001,0.38560929894447327,42.0,8049.368081938035
4,1639499450.229966,18720.000000000004,8049.600000000001,0.38782199621200564,42.0,8049.290892672206
5,1639499450.430039,18720.000000000004,8049.600000000001,0.43429029881954195,43.0,8049.208651434054
6,1639499450.6322002,18720.000000000004,8049.600000000001,0.33028999865055086,43.0,8049.131367155982
7,1639499450.8301184,18720.000000000004,8049.600000000001,0.43429029881954195,42.0,8049.055704986793
8,1639499451.0302157,18720.000000000004,8049.600000000001,0.37012000381946564,43.0,8048.9752248129325
9,1639499451.22991,18720.000000000004,8049.600000000001,0.44314139783382417,42.0,8048.894023038064
10,1639499451.4297051,18720.000000000004,8049.600000000001,0.3966730058193207,42.0,8048.810127575326
11,1639499451.6306021,18720.000000000004,8049.600000000001,0.32586460560560226,43.0,8048.737549763876
12,1639499451.8300812,18720.000000000004,8049.600000000001,0.436503005027771,42.0,8048.66151156028
13,1639499452.0300288,18720.000000000004,8049.600000000001,0.3723330020904541,43.0,8048.580649152852
14,1639499452.2307725,18720.000000000004,8049.600000000001,0.341354101896286,42.0,8048.509015066742
15,1639499452.4298134,18720.000000000004,8049.600000000001,0.4719072997570038,43.0,8048.428078930254
16,1639499452.6406493,18720.000000000004,8049.600000000001,0.33692860007286074,43.0,8048.342813094185
17,1639499452.8400502,18720.000000000004,8049.600000000001,0.5028862029314041,42.0,8048.259083179655
18,1639499453.0399961,18720.000000000004,8049.600000000001,0.4851839005947113,42.0,8048.160302883425
19,1639499453.2401707,18720.000000000004,8049.600000000001,0.4586307018995285,42.0,8048.065839042279
20,1639499453.4401324,18720.000000000004,8049.600000000001,0.3944604992866516,43.0,8047.980546274941
21,1639499453.640187,18720.000000000004,8049.600000000001,0.3966730982065201,43.0,8047.901411299231
22,1639499453.839932,18720.000000000004,8049.600000000001,0.4077372014522552,43.0,8047.82107285579
23,1639499454.0399544,18720.000000000004,8049.600000000001,0.4010987013578415,42.0,8047.740180182674
24,1639499454.2409546,18720.000000000004,8049.600000000001,0.44756690561771395,43.0,8047.654889198525
25,1639499454.4401164,18720.000000000004,8049.600000000001,0.48075849413871763,42.0,8047.562445734597
26,1639499454.6402273,18720.000000000004,8049.600000000001,0.3590563029050827,43.0,8047.478417681988
27,1639499454.8407245,18720.000000000004,8049.600000000001,0.3966731995344162,43.0,8047.402656876124
28,1639499455.0401702,18720.000000000004,8049.600000000001,0.3833967000246048,43.0,8047.32486607299
29,1639499455.240756,18720.000000000004,8049.600000000001,0.46305630505084994,42.0,8047.239972828565
30,1639499455.4403367,18720.000000000004,8049.600000000001,0.45199239552021026,42.0,8047.1486598124675
31,1639499455.6402156,18720.000000000004,8049.600000000001,0.3236519068479538,43.0,8047.071142335453
32,1639499455.840024,18720.000000000004,8049.600000000001,0.48297120332717897,41.0,8046.9905573154065
33,1639499456.0402584,18720.000000000004,8049.600000000001,0.363481804728508,43.0,8046.9058128047445
34,1639499456.2399652,18720.000000000004,8049.600000000001,0.37454549968242645,42.0,8046.832118271752
35,1639499456.440402,18720.000000000004,8049.600000000001,0.4099498987197876,42.0,8046.753497386145
36,1639499456.640396,18720.000000000004,8049.600000000001,0.33250289857387544,43.0,8046.679254301395
37,1639499456.8402162,18720.000000000004,8049.600000000001,0.4232263043522835,42.0,8046.603749380991
38,1639499457.0399995,18720.000000000004,8049.600000000001,0.33250300139188765,43.0,8046.528258324166
39,1639499457.2502296,18720.000000000004,8049.600000000001,0.4210136950016022,43.0,8046.449052374399
40,1639499457.4502878,18720.000000000004,8049.600000000001,0.36126900613307955,42.0,8046.370801331325
41,1639499457.650218,18720.000000000004,8049.600000000001,0.29931140393018724,43.0,8046.3047663475345
42,1639499457.8501263,18720.000000000004,8049.600000000001,0.3900347962975502,42.0,8046.235863349018
43,1639499458.0501509,18720.000000000004,8049.600000000001,0.4940351009368896,42.0,8046.147445483114
44,1639499458.250134,18720.000000000004,8049.600000000001,0.4608435988426208,42.0,8046.051965672329
45,1639499458.4501467,18720.000000000004,8049.600000000001,0.40552419126033784,43.0,8045.965323398871
46,1639499458.6502745,18720.000000000004,8049.600000000001,0.41880089938640597,43.0,8045.88283819893
47,1639499458.8505397,18720.000000000004,8049.600000000001,0.40994979739189147,42.0,8045.799853249696
48,1639499459.0500343,18720.000000000004,8049.600000000001,0.3568433985114098,43.0,8045.7233676986325
49,1639499459.2501824,18720.000000000004,8049.600000000001,0.39667309522628785,42.0,8045.6479602492445
50,1639499459.449948,18720.000000000004,8049.600000000001,0.34577960669994356,43.0,8045.573801963987
51,1639499459.6503007,18720.000000000004,8049.600000000001,0.4165880039334297,43.0,8045.497430771303
52,1639499459.8502946,18720.000000000004,8049.600000000001,0.3922478035092354,42.0,8045.416549678213
53,1639499460.050189,18720.000000000004,8049.600000000001,0.3634817019104958,42.0,8045.3410166195135
54,1639499460.2500756,18720.000000000004,8049.600000000001,0.4055242985486984,42.0,8045.264159637319
55,1639499460.4505773,18720.000000000004,8049.600000000001,0.36348180323839185,42.0,8045.187066129505
56,1639499460.650101,18720.000000000004,8049.600000000001,0.3634816974401474,43.0,8045.114542910388
57,1639499460.8500936,18720.000000000004,8049.600000000001,0.3634817063808441,43.0,8045.041849239158
58,1639499461.0503528,18720.000000000004,8049.600000000001,0.40994979739189147,42.0,8044.964405848702
59,1639499461.2502596,18720.000000000004,8049.600000000001,0.35905600190162656,42.0,8044.887541094438
60,1639499461.4503596,18720.000000000004,8049.600000000001,0.3125878006219864,42.0,8044.8203431504435
61,1639499461.650613,18720.000000000004,8049.600000000001,0.41216249763965607,42.0,8044.747776263361
62,1639499461.8503993,18720.000000000004,8049.600000000001,0.350204998254776,43.0,8044.67162101611
63,1639499462.0503285,18720.000000000004,8049.600000000001,0.3280774027109146,42.0,8044.603816774538
64,1639499462.250271,18720.000000000004,8049.600000000001,0.4077371031045914,43.0,8044.530256445952
65,1639499462.450211,18720.000000000004,8049.600000000001,0.36569450199604037,42.0,8044.45293650146
66,1639499462.6603794,18720.000000000004,8049.600000000001,0.47190749943256377,42.0,8044.364917781277
67,1639499462.8603323,18720.000000000004,8049.600000000001,0.5183755040168763,42.0,8044.265912831406
68,1639499463.060292,18720.000000000004,8049.600000000001,0.451992404460907,42.0,8044.168895566814
69,1639499463.2936385,18720.000000000004,8049.600000000001,0.37675839811563494,42.0,8044.0722025328805
70,1639499463.4609532,18720.000000000004,8049.600000000001,0.34135410487651824,43.0,8044.012127119521
71,1639499463.660192,18720.000000000004,8049.600000000001,0.3723328039050102,42.0,8043.94103006603
72,1639499463.860263,18720.000000000004,8049.600000000001,0.3546307012438774,42.0,8043.868307873264
73,1639499464.0602674,18720.000000000004,8049.600000000001,0.4033116981387138,43.0,8043.792511988887
74,1639499464.2604387,18720.000000000004,8049.600000000001,0.3015240982174873,43.0,8043.721968063951
75,1639499464.4664347,18720.000000000004,8049.600000000001,0.36569460332393644,43.0,8043.653245859943
76,1639499464.6619482,18720.000000000004,8049.600000000001,0.39003489911556244,42.0,8043.57936820487
77,1639499464.8600755,18720.000000000004,8049.600000000001,0.4719074010848999,42.0,8043.493981067561
78,1639499465.0604053,18720.000000000004,8049.600000000001,0.41658799946308134,43.0,8043.404985023243
79,1639499465.2598379,18720.000000000004,8049.600000000001,0.3125880002975464,42.0,8043.332274286318
80,1639499465.4609745,18720.000000000004,8049.600000000001,0.39667320251464844,42.0,8043.260945096778
81,1639499465.661886,18720.000000000004,8049.600000000001,0.37454549968242645,43.0,8043.183471735186
82,1639499465.8606231,18720.000000000004,8049.600000000001,0.3767581969499588,43.0,8043.108815759537
83,1639499466.0605707,18720.000000000004,8049.600000000001,0.44756689965724944,43.0,8043.026404849009
84,1639499466.2602024,18720.000000000004,8049.600000000001,0.37233280539512636,43.0,8042.944565866733
85,1639499466.460651,18720.000000000004,8049.600000000001,0.3590562030673027,43.0,8042.871262947136
86,1639499466.6607351,18720.000000000004,8049.600000000001,0.40773710012435915,42.0,8042.794551331198
87,1639499466.8605497,18720.000000000004,8049.600000000001,0.42322649955749514,42.0,8042.711532018993
88,1639499467.0602539,18720.000000000004,8049.600000000001,0.3258645996451378,43.0,8042.636733710798
89,1639499467.2606676,18720.000000000004,8049.600000000001,0.3413540005683899,43.0,8042.569873835301
90,1639499467.4705048,18720.000000000004,8049.600000000001,0.321439203619957,42.0,8042.500334500805
91,1639499467.670989,18720.000000000004,8049.600000000001,0.4409284949302673,43.0,8042.42391313283
92,1639499467.8703644,18720.000000000004,8049.600000000001,0.4807583004236221,42.0,8042.332032300226
93,1639499468.070468,18720.000000000004,8049.600000000001,0.4365031003952026,42.0,8042.240258682076
94,1639499468.2701597,18720.000000000004,8049.600000000001,0.3900348961353302,42.0,8042.157732263309
95,1639499468.4702125,18720.000000000004,8049.600000000001,0.37675829529762267,43.0,8042.0810327245235
96,1639499468.6703045,18720.000000000004,8049.600000000001,0.4121625989675522,43.0,8042.0021043142615
97,1639499468.8702445,18720.000000000004,8049.600000000001,0.3229293003678322,43.0,8041.928617189507
98,1639499469.0701973,18720.000000000004,8049.600000000001,0.40552419424057007,43.0,8041.855789016687
99,1639499469.2701857,18720.000000000004,8049.600000000001,0.3325028970837593,43.0,8041.781990600963
100,1639499469.4704485,18720.000000000004,8049.600000000001,0.33471580147743224,43.0,8041.715181063588
101,1639499469.6702607,18720.000000000004,8049.600000000001,0.447566893696785,43.0,8041.637026260646
102,1639499469.870411,18720.000000000004,8049.600000000001,0.370120008289814,43.0,8041.555196141151
103,1639499470.070397,18720.000000000004,8049.600000000001,0.42543910145759584,43.0,8041.475645806653
104,1639499470.270498,18720.000000000004,8049.600000000001,0.39003480076789854,42.0,8041.394057179073
105,1639499470.4710705,18720.000000000004,8049.600000000001,0.35020499527454374,43.0,8041.319821309272
106,1639499470.670397,18720.000000000004,8049.600000000001,0.46526909470558164,42.0,8041.238548504977
107,1639499470.8704505,18720.000000000004,8049.600000000001,0.33914130330085757,43.0,8041.1580859659225
108,1639499471.070417,18720.000000000004,8049.600000000001,0.45863070487976076,42.0,8041.078322155443
109,1639499471.2704282,18720.000000000004,8049.600000000001,0.4210135996341705,42.0,8040.990352775516
110,1639499471.4704964,18720.000000000004,8049.600000000001,0.34135410338640215,43.0,8040.9140899949825
111,1639499471.6705291,18720.000000000004,8049.600000000001,0.41216250211000444,43.0,8040.838726010281
112,1639499471.8704584,18720.000000000004,8049.600000000001,0.37454559803009035,43.0,8040.760083035036
113,1639499472.0704792,18720.000000000004,8049.600000000001,0.36569450199604037,42.0,8040.6860513302
114,1639499472.2707934,18720.000000000004,8049.600000000001,0.42543910443782806,43.0,8040.606813649488
115,1639499472.4806054,18720.000000000004,8049.600000000001,0.3679071992635727,43.0,8040.52358689155
116,1639499472.6807888,18720.000000000004,8049.600000000001,0.4475667983293533,43.0,8040.441964716261
117,1639499472.880319,18720.000000000004,8049.600000000001,0.5891841024160385,41.0,8040.338533074435
118,1639499473.0808246,18720.000000000004,8049.600000000001,0.45199230760335923,42.0,8040.234152278661
119,1639499473.2803268,18720.000000000004,8049.600000000001,0.421013605594635,42.0,8040.1470689655525
120,1639499473.4804063,18720.000000000004,8049.600000000001,0.407736998796463,42.0,8040.064160986696
121,1639499473.6802652,18720.000000000004,8049.600000000001,0.38560950458049775,43.0,8039.9848823054135
122,1639499473.8803093,18720.000000000004,8049.600000000001,0.3767583012580872,43.0,8039.908628693608
123,1639499474.082001,18720.000000000004,8049.600000000001,0.4010988026857376,42.0,8039.830185060979
124,1639499474.280352,18720.000000000004,8049.600000000001,0.35684340000152587,43.0,8039.755015709185
125,1639499474.4803267,18720.000000000004,8049.600000000001,0.3612688988447189,43.0,8039.683213621985
126,1639499474.680396,18720.000000000004,8049.600000000001,0.40331149995327,43.0,8039.606729040655
127,1639499474.8805363,18720.000000000004,8049.600000000001,0.3856093049049377,42.0,8039.5277816419075
128,1639499475.0804534,18720.000000000004,8049.600000000001,0.4896094024181366,42.0,8039.44029605861
129,1639499475.2806304,18720.000000000004,8049.600000000001,0.398886002600193,43.0,8039.351367906581
130,1639499475.4810095,18720.000000000004,8049.600000000001,0.44092859923839567,43.0,8039.267227245588
131,1639499475.6807756,18720.000000000004,8049.600000000001,0.44756699800491334,42.0,8039.178481569188
132,1639499475.8807704,18720.000000000004,8049.600000000001,0.34356689900159837,43.0,8039.099370235456
133,1639499476.0807984,18720.000000000004,8049.600000000001,0.398886002600193,43.0,8039.025114572242
134,1639499476.2807868,18720.000000000004,8049.600000000001,0.42101370096206664,42.0,8038.943129371582
135,1639499476.4807909,18720.000000000004,8049.600000000001,0.3679072007536888,43.0,8038.8642356638065
136,1639499476.6809871,18720.000000000004,8049.600000000001,0.3856093004345894,43.0,8038.788810068787
137,1639499476.8808641,18720.000000000004,8049.600000000001,0.3679070949554443,43.0,8038.713504761578
138,1639499477.0810192,18720.000000000004,8049.600000000001,0.4741200000047684,43.0,8038.629236786664
139,1639499477.2801619,18720.000000000004,8049.600000000001,0.35020510405302047,42.0,8038.547157625491
140,1639499477.4904778,18720.000000000004,8049.600000000001,0.35241780430078506,43.0,8038.473271225802
141,1639499477.6909206,18720.000000000004,8049.600000000001,0.4143752008676529,43.0,8038.39642216077
142,1639499477.8907275,18720.000000000004,8049.600000000001,0.5272265046834945,42.0,8038.302352888379
143,1639499478.090956,18720.000000000004,8049.600000000001,0.4342904046177864,42.0,8038.20609136689
144,1639499478.2908373,18720.000000000004,8049.600000000001,0.40773709714412687,43.0,8038.121938584633
145,1639499478.4908109,18720.000000000004,8049.600000000001,0.33692840188741685,43.0,8038.0474818705625
146,1639499478.690797,18720.000000000004,8049.600000000001,0.38339649736881254,43.0,8037.975454343889
147,1639499478.8904397,18720.000000000004,8049.600000000001,0.3502051025629044,42.0,8037.902225257142
148,1639499479.0918593,18720.000000000004,8049.600000000001,0.40994979441165924,42.0,8037.825670212576
149,1639499479.2905285,18720.000000000004,8049.600000000001,0.45199260115623474,42.0,8037.740049511569
150,1639499479.4904344,18720.000000000004,8049.600000000001,0.2926731020212173,43.0,8037.665617988069
151,1639499479.690639,18720.000000000004,8049.600000000001,0.38560950458049775,42.0,8037.597720335428
152,1639499479.8903928,18720.000000000004,8049.600000000001,0.4254393011331558,42.0,8037.516715310661
153,1639499480.0908246,18720.000000000004,8049.600000000001,0.34135410487651824,43.0,8037.439870410266
154,1639499480.2905626,18720.000000000004,8049.600000000001,0.4851838946342468,42.0,8037.357324876186
155,1639499480.4906626,18720.000000000004,8049.600000000001,0.33471570163965225,43.0,8037.275293944098
156,1639499480.6907394,18720.000000000004,8049.600000000001,0.3369285002350807,43.0,8037.208103726572
157,1639499480.8906837,18720.000000000004,8049.600000000001,0.4210135966539383,42.0,8037.132330641587
158,1639499481.0906177,18720.000000000004,8049.600000000001,0.3745456010103226,43.0,8037.052800972992
159,1639499481.290782,18720.000000000004,8049.600000000001,0.45641799867153166,43.0,8036.969636341851
160,1639499481.4930036,18720.000000000004,8049.600000000001,0.37675829976797104,43.0,8036.885393206442
161,1639499481.6906767,18720.000000000004,8049.600000000001,0.35241789668798446,43.0,8036.813323953276
162,1639499481.890332,18720.000000000004,8049.600000000001,0.3944605976343155,42.0,8036.738764830437
163,1639499482.0990083,18720.000000000004,8049.600000000001,0.3590561032295227,43.0,8036.660144277484
164,1639499482.2901754,18720.000000000004,8049.600000000001,0.34799239933490755,43.0,8036.592562065872
165,1639499482.4901173,18720.000000000004,8049.600000000001,0.3634815961122513,43.0,8036.521435344056
166,1639499482.700708,18720.000000000004,8049.600000000001,0.3413540035486221,43.0,8036.447219467798
167,1639499482.9004667,18720.000000000004,8049.600000000001,0.4564179122447968,43.0,8036.367538500243
168,1639499483.100549,18720.000000000004,8049.600000000001,0.5537797033786773,42.0,8036.266477167992
169,1639499483.3012156,18720.000000000004,8049.600000000001,0.5161626040935516,42.0,8036.159126290149
170,1639499483.5028315,18720.000000000004,8049.600000000001,0.38782230019569397,43.0,8036.067997465618
171,1639499483.7005453,18720.000000000004,8049.600000000001,0.39224750399589536,43.0,8035.990882162738
172,1639499483.9006827,18720.000000000004,8049.600000000001,0.47190740406513215,43.0,8035.90440731452
173,1639499484.1005673,18720.000000000004,8049.600000000001,0.38118400424718857,42.0,8035.819147374416
174,1639499484.300509,18720.000000000004,8049.600000000001,0.4276520013809204,42.0,8035.738287377657
175,1639499484.5023549,18720.000000000004,8049.600000000001,0.3524179011583328,43.0,8035.659560428001
176,1639499484.7004185,18720.000000000004,8049.600000000001,0.40552450716495514,43.0,8035.584500022466
177,1639499484.9000387,18720.000000000004,8049.600000000001,0.480758398771286,42.0,8035.496040016219
178,1639499485.10059,18720.000000000004,8049.600000000001,0.32586470544338225,43.0,8035.415155371658
179,1639499485.3008249,18720.000000000004,8049.600000000001,0.47854560017585757,43.0,8035.334619867134
180,1639499485.5003352,18720.000000000004,8049.600000000001,0.341354101896286,43.0,8035.252830634643
181,1639499485.700284,18720.000000000004,8049.600000000001,0.3656942009925842,42.0,8035.182143909143
182,1639499485.9005427,18720.000000000004,8049.600000000001,0.429864901304245,42.0,8035.102485080677
183,1639499486.1002893,18720.000000000004,8049.600000000001,0.3767582982778549,43.0,8035.021924956356
184,1639499486.3003588,18720.000000000004,8049.600000000001,0.38782220184803007,43.0,8034.945440364891
185,1639499486.5003355,18720.000000000004,8049.600000000001,0.39888610541820524,43.0,8034.866778706135
186,1639499486.7006383,18720.000000000004,8049.600000000001,0.34799220263957975,43.0,8034.791977783285
187,1639499486.900355,18720.000000000004,8049.600000000001,0.3878221035003662,43.0,8034.718500541618
188,1639499487.100861,18720.000000000004,8049.600000000001,0.3229294031858444,42.0,8034.647245580801
189,1639499487.300511,18720.000000000004,8049.600000000001,0.42543920278549197,43.0,8034.572539755509
190,1639499487.5008163,18720.000000000004,8049.600000000001,0.36790730357170104,42.0,8034.493083936314
191,1639499487.7108877,18720.000000000004,8049.600000000001,0.3236516997218132,43.0,8034.420445578141
192,1639499487.9110467,18720.000000000004,8049.600000000001,0.4519925981760025,42.0,8034.342819456367
193,1639499488.1122615,18720.000000000004,8049.600000000001,0.4254393011331558,42.0,8034.254543318536
194,1639499488.3106174,18720.000000000004,8049.600000000001,0.43871580362319945,43.0,8034.168838181077
195,1639499488.511048,18720.000000000004,8049.600000000001,0.3479922965168953,42.0,8034.089997980364
